x, y, ul, ur, rho, alpha, theta
0.0,0.0,-25,90,0.7071067811865476,0.7853981633974483,0.0
2.0616701789183017e-05,0.0,-25,90,0.7070922031271871,0.7850602291888277,0.0003585513354640525
0.0019173531457979188,6.726852678898901e-07,-25,90,0.705751833446058,0.7523000110410023,0.03501851376365579
0.005950031376127821,7.689572853380724e-05,-25,90,0.7028573693728112,0.6588818819726905,0.1324249598980567
0.010504436715108381,0.00047185010838769157,-25,90,0.6993813544910462,0.5263892089468938,0.2691525358216821
0.01555220761091725,0.0015222250090342023,25,90,0.6951041329977831,0.37801452153799364,0.4216563705057258
0.021155447980255832,0.0035779375678554872,48.09395655242433,90,0.6897296347616024,0.2167099976185497,0.5867095019310113
0.028200687013480857,0.007622991350991585,71.75455379220725,90,0.6819308692094068,0.06298219070575983,0.7437549868642663
0.03706688297154061,0.014735629576879565,88.08186211814146,72.87720786713388,0.670662791605314,-0.04751454453439874,0.8564596233118001
0.046554868847730115,0.02456415221426369,90,61.52414180366191,0.6570020793920223,-0.10822567327112975,0.9172938332288677
0.05581437462396731,0.035936774573889246,90,56.519735922571975,0.6423827106823334,-0.1285386834956752,0.935818985561177
0.06492565656308769,0.04806986182061993,90,56.2399705571345,0.6273201209206459,-0.11899027470839385,0.9233892059317566
0.0742161982823832,0.060515592170139756,87.73536309221561,59.1239277087636,0.6119137116707467,-0.08941073557328749,0.8906415172927065
0.08392456327678122,0.07292513157630398,78.78628082327238,64.31324617640568,0.5962480291653253,-0.04522823327145842,0.8436712923469155
0.09405617191386553,0.08487180854068055,64.67462966847654,74.67462966847654,0.5806219139039712,0.0033484452000369647,0.7932350711583055
0.10446436679342122,0.0960010089434915,60.25497104926799,75.43815560813655,0.5653880277391856,0.04744745174646425,0.7485356713371203
0.1150514973381558,0.10629228244268805,53.92196795266882,78.2287350881745,0.5506279293368472,0.07595864729845525,0.7206881842827455
0.1257487333288278,0.11595696225790991,50.8583519626664,77.83918713395113,0.5362397462359064,0.08431510991026481,0.7139952260207498
0.13633840742923423,0.1251962042029486,50.378521770618626,74.95747473911135,0.5222333187905416,0.07680922802653978,0.7236761120782792
0.14663072126380902,0.13420119781432047,52.10179540994278,69.9633019115143,0.5086045721727378,0.05581720781741095,0.7468624317716213
0.1565043101392931,0.14312783902672158,54.439020908162135,64.43902090816214,0.4953251742346845,0.027872856745872254,0.7766221926151377
0.16579045881630303,0.1519794905062505,52.90100008833776,62.90100008833776,0.48250833406948135,0.0016476455107553578,0.803991611222227
0.17448599630022782,0.16075654115776924,61.41857025834044,51.41857025834044,0.470154752152837,-0.018499997087563114,0.8245485544554993
0.18276929507385536,0.1695314815900049,60.18322073019683,49.75793753249783,0.4580881594278944,-0.03257900999280938,0.8384125394267761
0.19081700255984785,0.1783567472246573,59.433851981399116,47.64179444957067,0.44614852679570743,-0.03685017978696392,0.8419980527814166
0.19863161922755282,0.18707810826176396,57.13347640548806,47.13347640548806,0.4344456367124005,-0.029428007224888364,0.833631854953922
0.2062409687185706,0.19553110252956915,55.76945698943603,45.76945698943603,0.42307880824530025,-0.014437176340612923,0.8177360790816823
0.21372794433608394,0.20364900620934365,44.44460192777829,54.44460192777829,0.41203834939815237,0.003962823441254093,0.7987328583020875
0.22106025175524682,0.21132758396528115,43.17056897935108,53.17056897935108,0.401421408161259,0.021140292601512956,0.7814028770879916
0.22825608313620238,0.21859262811430738,41.943605106328505,51.943605106328505,0.3911967092194042,0.02863435895833233,0.7742318503787106
0.23528628623525086,0.22551814877148846,40.75976804452762,50.75976804452762,0.3813314003710635,0.02736818870133295,0.7761441241678522
0.24203106343032083,0.23212630662045083,39.62714134796854,49.62714134796854,0.3718928445664045,0.02378516758481708,0.7804467401934208
0.24847645728355194,0.2384802243412624,38.54143167900778,48.54143167900778,0.3628452639917315,0.016186466357807183,0.788693420909094
0.25467272906889793,0.2446656019112748,37.49103665270604,47.49103665270604,0.3540919721058837,0.00641141341275675,0.7989718925257302
0.26063334734060345,0.2507265696497151,46.471006495732176,36.471006495732176,0.3455917207977681,-0.0022661082619295225,0.8079356759123315
0.2664204287541106,0.2567263628346342,45.470696713305365,35.470696713305365,0.3372558059442114,-0.006872234272146782,0.8125968432733642
0.27208138495502954,0.26267576624634653,44.485231327107314,34.485231327107314,0.329043594392561,-0.0008894819486662264,0.8065014705704754
0.27755641745309595,0.26842261166179326,33.53275194641801,43.53275194641801,0.3211062662201501,0.013951204185304267,0.7915618315928066
0.2828802629730421,0.2738950365944549,32.616590215478155,42.616590215478155,0.3134715851289846,0.030718829317687324,0.7749489530496388
0.28804569885057,0.2790408802924374,30.155205538866337,43.32852981394906,0.30618223063673083,0.04116663835963352,0.7650290327684667
0.2930579469621342,0.283901656197294,28.8770492710633,42.93210079050229,0.29920479192318994,0.043922035998246844,0.7631167589793251
0.29792052488074766,0.2885613429676553,28.485148463379087,41.709177441509894,0.2924763579370374,0.04132509055665878,0.7667022723339656
0.30257123475462844,0.29302493837460897,28.74239436464588,39.906329618499186,0.28603634992977106,0.03488729766829157,0.7741123332668893
0.3070493659544673,0.29737042590243273,28.576139701825433,38.57613970182543,0.2798011641818786,0.02857762803632502,0.7812833599761704
0.311417278136693,0.30167137470239574,27.840930056995596,37.840930056995596,0.27367441714163,0.02188840040037987,0.7886934209090941
0.3156856967977821,0.30593600868193854,27.11711956750647,37.11711956750647,0.2676426630625539,0.012904711809898828,0.7982547898548021
0.31977352606283305,0.31008937258640595,26.417922396289498,36.4179223962895,0.26181601996907916,0.002544558877972558,0.8090113299187237
0.32369450717631193,0.3141558104891958,35.74007693347774,25.740076933477734,0.2561673077789811,-0.007080558087491862,0.8188117330880745
0.3275357344605813,0.318222386429944,35.068806777775045,25.068806777775045,0.25057338981479205,-0.012865517265065574,0.8245485544554993
0.3313124698192203,0.3222835369707812,34.403336317662024,25,0.24502780264718357,-0.008430375666719114,0.8198873870944666
0.335068261790421,0.3263266350730406,25,33.74116889995877,0.23950974083298976,0.004588025363941095,0.8066209876822967
0.3387982980546076,0.3302712868407043,25,33.089696987392784,0.23408080822827318,0.01792417212778674,0.7932350711583054
0.342465647280602,0.33404757944434055,25,32.458055388538185,0.22881712823781825,0.02439502227730639,0.7870201813435952
0.34611225007964036,0.3377288393562677,25,31.836402810210945,0.2236366900850912,0.02393207915411577,0.787976318238166
0.3497297620449157,0.34136154024717785,25,31.221388153960998,0.218511567949675,0.021875473353403452,0.7906056946982357
0.3532875086276627,0.34494705623872757,25,30.615424554543072,0.21346187128785893,0.02015346821600217,0.7928765198228414
0.3567930181546923,0.3484972541114651,25,30.016854956579156,0.2084737913048263,0.018989904679454273,0.7945497593883403
0.3602192418863916,0.35198086106403587,25,30,0.20358861910764892,0.018868381563694636,0.795147344947447
0.3636318354047199,0.3554585931044983,25,30,0.19871712211688353,0.019457764155405566,0.7950278278356256
0.36703879349992713,0.3589322268979187,25,30,0.19385251879182616,0.019466522518898022,0.795505896282911
0.37037297109928474,0.3623328541519838,25,30,0.18909100895485706,0.019365271044938237,0.7961034818420177
0.373676458103992,0.36570582530209,25,30,0.18437072054679737,0.019032150015164118,0.7969401016247671
0.3769919378562402,0.3690959064294216,25,30,0.1796298000497073,0.01835036491913289,0.7981352727429807
0.3802943873891168,0.3724795021216588,25,30,0.17490257593782563,0.018145540570128293,0.7988523754139087
0.3835839946106034,0.37585642390593876,25,30,0.1701890531034414,0.017701921388768582,0.7998085123084795
0.386856416934502,0.3792213017068814,25,30,0.16549611581629162,0.016663883463897133,0.8013622347621571
0.3900815515313736,0.38254588570068343,25,30,0.16086495665491288,0.015492933349972149,0.803035474327656
0.39331560457466697,0.38589053277788266,25,30,0.15621309399978062,0.013947206977726667,0.8050672652286189
0.39655780837369226,0.3892559649717711,25,30,0.15154051703352261,0.012257489307992198,0.8072185732414032
0.3997263933377823,0.3925587108108085,25,30,0.1469640323878078,0.010760940644709116,0.8091308470305448
0.40286918982964876,0.39584809118834385,25,30,0.14241493739583763,0.00874461274711702,0.8115211892669718
0.4060380817676844,0.3991790557949987,25,30,0.13781765078640815,0.0065662740872173275,0.8140310486152201
0.40918937841623565,0.4025077696183971,25,30,0.13323401959413061,0.004564720700737546,0.8163018737398258
0.4123420877511451,0.4058540553385042,25,30,0.12863657518774888,0.0024973161833612423,0.8185726988644314
0.41551542035102657,0.4092375457476742,25,30,0.12399785199901357,0.0010794307483397159,0.820126421318109
0.41868697542945743,0.41263211563569363,30,25,0.11935223157991001,-0.00028252090977276545,0.8215606266599652
0.4218628168198985,0.41604148390600715,30,25,0.11469285862696942,-0.0019381916181653303,0.8232338662254641
0.4250800936246981,0.41950616499162957,25,30,0.1099647663828681,0.0008824371143951737,0.8203654555417517
0.42827129476972325,0.4229387849720625,25,30,0.10527790848793468,0.008505657457407279,0.8127163603851852
0.4314052538596673,0.42627436273307984,25,30,0.1007010863321254,0.014693747182557448,0.8067405047941177
0.4345334128277855,0.4295586861060838,25,30,0.09616575658246751,0.018591464208246533,0.8033940256631199
0.43764355033384905,0.4327936917712585,25,30,0.0916788671434362,0.02216806745408184,0.8006451320912288
0.440739655495407,0.43599449685344654,25,30,0.08722667518509754,0.02585873255512361,0.798015755631159
0.44382999048299426,0.43917217802940295,25,30,0.08279549441139394,0.030399457966108434,0.7947887936119825
0.4469007486853355,0.4423113521867497,25,30.714527868060948,0.07840606211702718,0.035715799175380925,0.7910837631455206
0.4499727889638092,0.4454300054950062,25,31.51300221132649,0.0740311160549037,0.04070626382079057,0.7880958353499868
0.4531085104300217,0.4485920087270972,25,32.29707562361025,0.06958155905702483,0.045606722647564046,0.7857054931135599
0.45634492044856406,0.4518380308405376,25,33.12330209228469,0.06500262490053159,0.050770638076779284,0.7836737022125969
0.4596613988962218,0.45514977326405215,25,33.89463425863486,0.06032201569307566,0.05559146411646787,0.782717565318026
0.4630120280949709,0.4584856658840133,25,34.644127952611456,0.05560170863148903,0.060275799703821575,0.782717565318026
0.46634963020952475,0.4618054222534567,25,35.43985239942748,0.050903567225416224,0.06524907749642173,0.7833151508771328
0.46974466704281254,0.4651843741006894,25,36.126496260244636,0.046124971318267725,0.06954060162652898,0.7858250102253811
0.4732705807548897,0.4687045871953074,25,36.78872576598881,0.04115658775696779,0.07367953603743005,0.790247143362771
0.47689083942918653,0.4723442332929193,25,37.578930161444276,0.03603990475076361,0.0786183135090267,0.7961034818420172
0.48053587951734567,0.47604635760866815,25,38.5491653942314,0.03086468807513036,0.08468228371394626,0.8037525769985836
0.4841652985591486,0.47978296018559397,25,40.040609312100166,0.02568007921674271,0.09400380820062604,0.81235780904972090.4917512506844137,0.4877991411778338,0,90,0.9918262973878528,2.2932687392638016,0.8360221971903484
0.495844750245049,0.49226915352791223,0,90,0.9958747574759583,2.2727089147526454,0.8611207906728321
0.5002916819373538,0.49732633483584854,0,90,1.000295255131439,2.21349877759064,0.9254209968327188
0.5049663525231781,0.503148062741335,0,90,1.004971283173188,2.1161608846234836,1.0285642643345445
0.5093239218525841,0.5096130991997009,0,90,1.009369699812762,2.004230455991408,1.1468862050376818
0.5131588072665266,0.5169750559571928,0,90,1.0133010023021198,1.8778393356335128,1.280506336053952
0.5162472396432813,0.5252857251493327,0,90,1.0165617639764524,1.738598055908274,1.4278709349296774
0.5181739153077703,0.5340056383494827,0,90,1.018741628310491,1.5949626792560112,1.5800162182782571
0.5187641410361221,0.5427430414697588,0,90,1.019660405554297,1.4524379912106342,1.7310858476204445
0.5180132207269437,0.5514959750314943,0,90,1.0193148448930238,1.3083056376199025,1.8838287165281309
0.515926894991997,0.5601419741269592,0,90,1.017705513898774,1.1617608318595867,2.0389619276722444
0.5125418090352769,0.5683658823797888,0,90,1.0148471850076732,1.014914263052841,2.194095138816358
0.5079288753308049,0.5759613083678904,0,90,1.0107871873419167,0.8677053824486798,2.34910883284865
0.5021555256050645,0.5827978722077566,0,90,1.00557007967764,0.7188270337129001,2.505198180887334
0.4953488656626782,0.5887004227429203,0,90,0.9992933149835203,0.568109595482948,2.6623631829324106
0.4877361836263772,0.593453833208441,25,90,0.9921473617291694,0.41699540125357437,2.81893059941838
0.47947817882868915,0.5969515528783589,47.35217953526728,90,0.9842647542237255,0.2665488779045795,2.9737052592270294
0.4695723657447663,0.5993363728937505,68.43022350515199,90,0.9746477760686623,0.1348111030928001,3.108879112696977
0.4574303486753079,0.6005028140977181,84.57286097315006,90,0.9626908580671587,0.033919618917812144,3.2122614144224455
0.4435908617278656,0.6001978805825128,90,83.28545703442387,0.9488958476089795,-0.04196589353485081,3.2893499515472167
0.4284322882301265,0.5985131086731935,90,76.06338413449748,0.9336441219269178,-0.08710384915939073,3.334407902703866
0.41250782729369234,0.5957676471712832,90,73.47083903506189,0.9175194696119415,-0.10330725603086321,3.349467058793356
0.3961296674576718,0.5924399544726907,90,73.60737083574534,0.9008848572823891,-0.10245393227659161,3.3468376823332866
0.3793546220704487,0.5889250274872756,90,75.96321347519421,0.8838394717765632,-0.0877299157800362,3.3301052866782976
0.36233125821533635,0.5855297366003603,90,79.90098334875455,0.8665624817277587,-0.06311885407028406,3.3035724878539576
0.34519196788964623,0.5824952877437647,90,84.22111113253507,0.8492084167535667,-0.036118055421655804,3.275007898128655
0.3277579636781938,0.5799043171308245,90,85,0.8316056435166931,-0.011008148867619028,3.2488336506397792
0.30992514789542547,0.5777499232006246,85,90,0.8136484472738393,0.010692356967782146,3.226603467841008
0.2917988041648574,0.5760033531575428,85,90,0.7954381534526039,0.029089850794029815,3.20819783262052
0.2734691090585736,0.5746117185638193,83.22410572908268,90,0.777059438662777,0.04234933919323325,3.1954095016556354
0.2550852836880715,0.5735032941261797,82.12837942478757,90,0.7586544140052801,0.0491976285950777,3.189433646064568
0.23674647618324426,0.5725702665161343,80.55303802926272,90,0.7403119705574471,0.05177749023519329,3.1879994407227117
0.21845230954952705,0.5717075207173258,78.39969571088626,90,0.7220219453898026,0.05151836084931283,3.1895531631763894
0.2003503966659178,0.5708529056409624,76.68205180726079,90,0.7039252888963967,0.048681142876917605,3.1937362620901366
0.18251185836703476,0.5699594908155678,75.68785875126065,88.97326534549603,0.6860880170698195,0.04151689560698557,3.2022219770294527
0.1648921383767906,0.5689654484723852,75.21511178150237,85.21511178150237,0.6684592648458532,0.030534599028099407,3.2144127224352306
0.1475511971279669,0.567807540833097,73.13100526127901,83.13100526127901,0.6510917105106585,0.019203230082961653,3.2267229849528296
0.1304313079050727,0.5664530580666881,71.07088048623955,81.07088048623955,0.6339240040519962,0.00805853623415409,3.2385551790231433
0.11350689785506068,0.5649085730912736,79.03171784243145,69.03171784243145,0.6169309820202621,-0.0043437246590798395,3.2513435099880277
0.096848892747197,0.5631815390652893,77.02204738961451,67.02204738961451,0.6001837282467876,-0.01444407344150811,3.2615024644928425
0.08062804133328443,0.5613121387418868,75.06274795246529,65.06274795246529,0.5838562329372108,-0.01565958735429973,3.2624586013874133
0.06489536189877282,0.5594090039487523,73.16128868270442,63.16128868270442,0.5680107390225368,-0.00939001180359611,3.2557656431254176
0.04955330432030291,0.5575969723963546,61.307600887588265,71.30760088758826,0.5525633407299022,0.0019653364744449675,3.244052966166925
0.034639545638822426,0.5559737997098171,59.50739604273073,69.50739604273073,0.5375616336894228,0.01512052892325677,3.2307865667547553
0.020219831682323837,0.5545859231596446,57.7690964286724,67.7690964286724,0.52307580357227,0.021327948720469614,3.2248107111636877
0.006396463779251937,0.5533902954832345,56.10438438762658,66.10438438762658,0.5092032032302215,0.02027195910687496,3.2263644336173654
-0.00680650636776463,0.5522789227074192,54.51478702017592,64.51478702017593,0.495956558501466,0.016532080626912915,3.230667049642934
-0.01948584653579426,0.551174515708323,52.98778001802287,62.98778001802287,0.48323150015019056,0.011049319419141668,3.2366429052340018
-0.03176925666986499,0.5500409450434083,51.507657911089595,61.507657911089595,0.47089714925907994,0.00460555403022056,3.2434553806078186
-0.043628018442054495,0.5488704794640047,60.0777397332535,50.0777397332535,0.4589811644437792,-0.0021164950660770288,3.250387373093457
-0.05506836923429168,0.5476615328605133,58.69725504990388,48.69725504990388,0.44747712541586565,-0.005188075024026517,3.253494818000812
-0.06628394260229684,0.5464189712412051,47.34316083724858,57.34316083724858,0.43619300697707153,0.000454971625124756,3.247757996633387
-0.07736444625224814,0.5452058135207741,46.00555878426891,56.00555878426891,0.42504632320224095,0.009713550895025236,3.2384356619113217
-0.08820066663785815,0.5441012293838008,44.69849067351649,54.69849067351649,0.4141540889459707,0.012354200554851147,3.2359258025630733
-0.09866031214695084,0.5430981044101354,43.437653532722976,53.437653532722976,0.40364711277269144,0.009176512172348161,3.2393917988058925
-0.10872961478689082,0.5421281335873069,42.22381849633565,52.22381849633565,0.39353182080279714,0.003481932231921725,3.24536765439696
-0.1185138590894038,0.5411389238873444,51.0437492980615,41.0437492980615,0.38369791081717913,-0.005315335034582702,3.2543314377835615
-0.12807179919303222,0.5401007384847498,49.8900506044317,39.8900506044317,0.3740837550369308,-0.012386700202180023,3.261382947381021
-0.13736858432758292,0.5390153943951456,48.76690442225058,38.76690442225058,0.36472420351875484,-0.009266420965243327,3.2580364682500234
-0.14639715851833013,0.53794373532719,37.67593736972473,47.67593736972473,0.35563281141437275,0.0032415580377112008,3.245248137285139
-0.15510594340792647,0.5369802550860341,36.62451289034155,46.62451289034155,0.34687094075284625,0.015468765828467568,3.23293787476754
-0.16349788100070817,0.5361585430497176,35.6127082955752,45.6127082955752,0.33843923579646,0.019403213698302224,3.229232844301078
-0.17165677235694407,0.5354262472972511,34.62986040307749,44.62986040307749,0.3302488366923124,0.017208613268875794,3.2318622207611476
-0.17956283055151387,0.5347213125658068,33.677537501636316,43.677537501636316,0.32231281251363597,0.013004227775976318,3.23652338812218
-0.1871720231020187,0.5340150009930565,32.76062013905543,42.76062013905543,0.3146718344921286,0.006684683441855022,3.243216346384176
-0.19449667687597783,0.533293313210265,41.87745167549488,31.877451675494882,0.3073120972957907,-0.0006030809381973867,3.250745924428921
-0.20159729180523406,0.5325424935292573,41.02063211633358,31.02063211633358,0.30017193430277983,-0.0037538873118503346,3.2539728864480977
-0.20850255331430606,0.5317746662276498,30.18689568673924,40.18689568673924,0.293224130722827,0.004203686063878109,3.245965239956067
-0.21516356019933652,0.5310494046718951,29.382850765325777,39.38285076532578,0.2865237563777148,0.01771196891583493,3.2324598063202545
